# 2016-09-22-Thursday
# DL3 limit scan.
# B2 = T2 + 2.050 us
# HP 214B FIP at 5.5 on 100V setting ; Applied to Top ; Mesh & Vin of MCP @ +25V ; Vout of MCP @ +2025 V
# Oven @ 32 A
# MW On ; f = 15932.0 MHz; Attn = MAX
# Gate = 200 ns ; Amp = 25x ; Sensitivity = 5 mV
# +/- 30 mV IR/Oven offset.
# Top: 0 V ; Bot: -0.426 V ; IR: +0.072 V ; Oven: -0.072 V ; Vis: -0.010 V ; MW: +0.010 V
# i, IR frequency, norm, norm bkgnd, signal, signal bkgnd
0	-81.32	0.226249	-0.00942512	0.132563	-0.03138	
1	-81.22	0.213621	-0.00942512	0.1298	-0.03138	
2	-81.12	0.229899	-0.00942512	0.131543	-0.03138	
3	-80.92	0.224375	-0.00942512	0.123487	-0.03138	
4	-80.72	0.2201	-0.00942512	0.136903	-0.03138	
5	-80.42	0.231839	-0.00942512	0.134799	-0.03138	
6	-80.22	0.229504	-0.00942512	0.147097	-0.03138	
7	-79.72	0.224769	-0.00942512	0.131938	-0.03138	
8	-79.42	0.215101	-0.00942512	0.134568	-0.03138	
9	-79.12	0.233714	-0.00942512	0.134042	-0.03138	
10	-78.92	0.218883	-0.00942512	0.139139	-0.03138	
11	-78.72	0.218455	-0.00942512	0.146308	-0.03138	
12	-78.42	0.23812	-0.00942512	0.147031	-0.03138	
13	-78.22	0.225723	-0.00942512	0.145289	-0.03138	
14	-77.82	0.212142	-0.00942512	0.13789	-0.03138	
15	-77.52	0.207669	-0.00942512	0.152161	-0.03138	
16	-77.12	0.238909	-0.00942512	0.144499	-0.03138	
17	-76.72	0.215759	-0.00942512	0.138021	-0.03138	
18	-76.32	0.219113	-0.00942512	0.147229	-0.03138	
19	-76.02	0.221349	-0.00942512	0.147788	-0.03138	
20	-75.52	0.239304	-0.00942512	0.147591	-0.03138	
21	-75.32	0.230096	-0.00942512	0.150287	-0.03138	
22	-74.92	0.220461	-0.00942512	0.149399	-0.03138	
23	-74.42	0.223158	-0.00942512	0.149169	-0.03138	
24	-73.92	0.2298	-0.00942512	0.163605	-0.03138	
25	-73.42	0.222533	-0.00942512	0.154102	-0.03138	
26	-73.02	0.234075	-0.00942512	0.160021	-0.03138	
27	-72.62	0.208393	-0.00942512	0.149531	-0.03138	
28	-72.22	0.229504	-0.00942512	0.148215	-0.03138	
29	-71.92	0.219771	-0.00942512	0.1493	-0.03138	
30	-71.52	0.220165	-0.00942512	0.159758	-0.03138	
31	-71.02	0.236903	-0.00942512	0.153181	-0.03138	
32	-70.52	0.222862	-0.00942512	0.154167	-0.03138	
33	-70.12	0.219146	-0.00942512	0.153312	-0.03138	
34	-69.82	0.227104	-0.00942512	0.145157	-0.03138	
35	-69.42	0.224769	-0.00942512	0.151602	-0.03138	
36	-69.02	0.227564	-0.00942512	0.163408	-0.03138	
37	-68.62	0.217403	-0.00942512	0.161303	-0.03138	
38	-68.12	0.225197	-0.00942512	0.153543	-0.03138	
39	-67.72	0.216121	-0.00942512	0.152753	-0.03138	
40	-67.42	0.230063	-0.00942512	0.150155	-0.03138	
41	-67.02	0.228781	-0.00942512	0.146571	-0.03138	
42	-66.62	0.222303	-0.00942512	0.165282	-0.03138	
43	-66.32	0.228025	-0.00942512	0.15374	-0.03138	
44	-65.92	0.223026	-0.00942512	0.150846	-0.03138	
45	-65.52	0.220198	-0.00942512	0.161665	-0.03138	
46	-65.12	0.225821	-0.00942512	0.164394	-0.03138	
47	-64.72	0.215759	-0.00942512	0.162191	-0.03138	
48	-64.32	0.242592	-0.00942512	0.1518	-0.03138	
49	-63.92	0.22273	-0.00942512	0.151208	-0.03138	
50	-63.62	0.239501	-0.00942512	0.162882	-0.03138	
51	-63.32	0.239435	-0.00942512	0.170248	-0.03138	
52	-63.02	0.238416	-0.00942512	0.15443	-0.03138	
53	-62.72	0.229702	-0.00942512	0.159429	-0.03138	
54	-62.42	0.235128	-0.00942512	0.162355	-0.03138	
55	-61.92	0.238811	-0.00942512	0.164065	-0.03138	
56	-61.62	0.224934	-0.00942512	0.1518	-0.03138	
57	-61.12	0.222303	-0.00942512	0.153806	-0.03138	
58	-60.82	0.225262	-0.00942512	0.157521	-0.03138	
59	-60.62	0.233746	-0.00942512	0.155877	-0.03138	
60	-60.22	0.226874	-0.00942512	0.156798	-0.03138	
61	-59.92	0.226084	-0.00942512	0.146472	-0.03138	
62	-59.62	0.247591	-0.00942512	0.154595	-0.03138	
63	-59.22	0.225164	-0.00942512	0.153345	-0.03138	
64	-58.92	0.244763	-0.00942512	0.15933	-0.03138	
65	-58.42	0.237561	-0.00942512	0.154661	-0.03138	
66	-58.12	0.22957	-0.00942512	0.148709	-0.03138	
67	-57.82	0.232234	-0.00942512	0.150945	-0.03138	
68	-57.42	0.219672	-0.00942512	0.148446	-0.03138	
69	-57.12	0.224013	-0.00942512	0.147558	-0.03138	
70	-56.82	0.221744	-0.00942512	0.146341	-0.03138	
71	-56.42	0.219409	-0.00942512	0.153312	-0.03138	
72	-56.12	0.227926	-0.00942512	0.155417	-0.03138	
73	-55.52	0.230622	-0.00942512	0.155581	-0.03138	
74	-55.12	0.225164	-0.00942512	0.164756	-0.03138	
75	-54.82	0.23345	-0.00942512	0.157291	-0.03138	
76	-54.42	0.226972	-0.00942512	0.144861	-0.03138	
77	-54.22	0.227104	-0.00942512	0.145716	-0.03138	
78	-53.82	0.227071	-0.00942512	0.152852	-0.03138	
79	-53.42	0.252293	-0.00942512	0.148807	-0.03138	
80	-52.92	0.237627	-0.00942512	0.156864	-0.03138	
81	-52.52	0.230129	-0.00942512	0.149498	-0.03138	
82	-52.12	0.212635	-0.00942512	0.154365	-0.03138	
83	-51.72	0.232431	-0.00942512	0.137429	-0.03138	
84	-51.32	0.227203	-0.00942512	0.150484	-0.03138	
85	-50.92	0.229669	-0.00942512	0.153904	-0.03138	
86	-50.62	0.213161	-0.00942512	0.150945	-0.03138	
87	-50.22	0.224868	-0.00942512	0.15693	-0.03138	
88	-49.62	0.225098	-0.00942512	0.137232	-0.03138	
89	-49.22	0.226019	-0.00942512	0.154529	-0.03138	
90	-48.82	0.242559	-0.00942512	0.160481	-0.03138	
91	-48.42	0.229176	-0.00942512	0.167518	-0.03138	
92	-48.02	0.229998	-0.00942512	0.152424	-0.03138	
93	-47.72	0.219771	-0.00942512	0.141803	-0.03138	
94	-47.32	0.241935	-0.00942512	0.153214	-0.03138	
95	-46.82	0.225723	-0.00942512	0.143776	-0.03138	
96	-46.52	0.218192	-0.00942512	0.150123	-0.03138	
97	-46.12	0.225591	-0.00942512	0.161303	-0.03138	
98	-45.72	0.232069	-0.00942512	0.143908	-0.03138	
99	-45.22	0.222697	-0.00942512	0.144993	-0.03138	
100	-44.82	0.214608	-0.00942512	0.158738	-0.03138	
101	-44.62	0.224901	-0.00942512	0.158311	-0.03138	
102	-44.22	0.237988	-0.00942512	0.152753	-0.03138	
103	-43.72	0.22181	-0.00942512	0.14348	-0.03138	
104	-43.32	0.222171	-0.00942512	0.153477	-0.03138	
105	-43.02	0.233023	-0.00942512	0.147985	-0.03138	
106	-42.72	0.233582	-0.00942512	0.145124	-0.03138	
107	-42.32	0.229833	-0.00942512	0.140553	-0.03138	
108	-41.92	0.221744	-0.00942512	0.145815	-0.03138	
109	-41.62	0.216811	-0.00942512	0.139994	-0.03138	
110	-41.22	0.235752	-0.00942512	0.146867	-0.03138	
111	-40.82	0.216713	-0.00942512	0.13937	-0.03138	
112	-40.42	0.216186	-0.00942512	0.133714	-0.03138	
113	-40.12	0.213293	-0.00942512	0.140948	-0.03138	
114	-39.82	0.216285	-0.00942512	0.145058	-0.03138	
115	-39.52	0.218916	-0.00942512	0.140323	-0.03138	
116	-39.12	0.222533	-0.00942512	0.133154	-0.03138	
117	-38.82	0.226084	-0.00942512	0.142757	-0.03138	
118	-38.52	0.238054	-0.00942512	0.142987	-0.03138	
119	-38.12	0.225986	-0.00942512	0.147788	-0.03138	
120	-37.82	0.22546	-0.00942512	0.135029	-0.03138	
121	-37.22	0.228912	-0.00942512	0.151997	-0.03138	
122	-36.82	0.227531	-0.00942512	0.150879	-0.03138	
123	-36.52	0.21908	-0.00942512	0.138317	-0.03138	
124	-36.12	0.218061	-0.00942512	0.146604	-0.03138	
125	-35.82	0.229537	-0.00942512	0.148774	-0.03138	
126	-35.42	0.22227	-0.00942512	0.145585	-0.03138	
127	-35.12	0.225295	-0.00942512	0.139764	-0.03138	
128	-34.52	0.21349	-0.00942512	0.140948	-0.03138	
129	-34.02	0.217798	-0.00942512	0.142888	-0.03138	
130	-33.72	0.221514	-0.00942512	0.14223	-0.03138	
131	-33.42	0.230458	-0.00942512	0.144894	-0.03138	
132	-33.02	0.23812	-0.00942512	0.146703	-0.03138	
133	-32.72	0.229899	-0.00942512	0.130261	-0.03138	
134	-32.22	0.229176	-0.00942512	0.146012	-0.03138	
135	-31.82	0.228353	-0.00942512	0.136246	-0.03138	
136	-31.22	0.233944	-0.00942512	0.14302	-0.03138	
137	-30.92	0.231379	-0.00942512	0.146275	-0.03138	
138	-30.52	0.22204	-0.00942512	0.143546	-0.03138	
139	-30.22	0.221514	-0.00942512	0.138909	-0.03138	
140	-29.82	0.216581	-0.00942512	0.14394	-0.03138	
141	-29.42	0.235752	-0.00942512	0.138449	-0.03138	
142	-29.02	0.234108	-0.00942512	0.145749	-0.03138	
143	-28.52	0.229603	-0.00942512	0.150188	-0.03138	
144	-28.12	0.228156	-0.00942512	0.150484	-0.03138	
145	-27.72	0.232793	-0.00942512	0.154924	-0.03138	
146	-27.42	0.225854	-0.00942512	0.147163	-0.03138	
147	-27.12	0.230787	-0.00942512	0.159955	-0.03138	
148	-26.72	0.242329	-0.00942512	0.154792	-0.03138	
149	-26.42	0.221283	-0.00942512	0.159988	-0.03138	
150	-26.02	0.221678	-0.00942512	0.153904	-0.03138	
151	-25.62	0.238252	-0.00942512	0.147854	-0.03138	
152	-25.22	0.239172	-0.00942512	0.147393	-0.03138	
153	-24.92	0.236838	-0.00942512	0.147623	-0.03138	
154	-24.52	0.240159	-0.00942512	0.148741	-0.03138	
155	-24.22	0.240455	-0.00942512	0.141343	-0.03138	
156	-24.02	0.233779	-0.00942512	0.147262	-0.03138	
157	-23.72	0.234305	-0.00942512	0.145026	-0.03138	
158	-23.32	0.224177	-0.00942512	0.155022	-0.03138	
159	-23.02	0.232497	-0.00942512	0.15785	-0.03138	
160	-22.72	0.236476	-0.00942512	0.151504	-0.03138	
161	-22.32	0.233319	-0.00942512	0.140586	-0.03138	
162	-21.92	0.235358	-0.00942512	0.140356	-0.03138	
163	-21.62	0.227137	-0.00942512	0.157028	-0.03138	
164	-21.22	0.236542	-0.00942512	0.136311	-0.03138	
165	-21.02	0.230392	-0.00942512	0.150188	-0.03138	
166	-20.62	0.230063	-0.00942512	0.150451	-0.03138	
167	-20.32	0.235983	-0.00942512	0.143316	-0.03138	
168	-19.92	0.238843	-0.00942512	0.15101	-0.03138	
169	-19.62	0.234766	-0.00942512	0.154167	-0.03138	
170	-19.12	0.231839	-0.00942512	0.158837	-0.03138	
171	-18.72	0.242822	-0.00942512	0.149629	-0.03138	
172	-18.32	0.231017	-0.00942512	0.14473	-0.03138	
173	-18.02	0.231576	-0.00942512	0.142494	-0.03138	
174	-17.62	0.232365	-0.00942512	0.14713	-0.03138	
175	-17.32	0.239633	-0.00942512	0.140389	-0.03138	
176	-16.92	0.235818	-0.00942512	0.136903	-0.03138	
177	-16.52	0.227203	-0.00942512	0.124703	-0.03138	
178	-16.12	0.220593	-0.00942512	0.125756	-0.03138	
179	-15.62	0.218521	-0.00942512	0.133812	-0.03138	
180	-15.32	0.249268	-0.00942512	0.141145	-0.03138	
181	-15.02	0.233615	-0.00942512	0.133648	-0.03138	
182	-14.62	0.231149	-0.00942512	0.135423	-0.03138	
183	-14.32	0.234305	-0.00942512	0.134108	-0.03138	
184	-13.82	0.25009	-0.00942512	0.11589	-0.03138	
185	-13.42	0.231708	-0.00942512	0.130326	-0.03138	
186	-12.82	0.221086	-0.00942512	0.115562	-0.03138	
187	-12.52	0.224243	-0.00942512	0.11372	-0.03138	
188	-12.12	0.222862	-0.00942512	0.122303	-0.03138	
189	-11.72	0.206124	-0.00942512	0.108196	-0.03138	
190	-11.32	0.223947	-0.00942512	0.0951736	-0.03138	
191	-10.82	0.207176	-0.00942512	0.0848152	-0.03138	
192	-10.32	0.210234	-0.00942512	0.0796195	-0.03138	
193	-9.82	0.207374	-0.00942512	0.0621253	-0.03138	
194	-9.42	0.213885	-0.00942512	0.064756	-0.03138	
195	-8.92	0.202572	-0.00942512	0.062191	-0.03138	
196	-8.52	0.210333	-0.00942512	0.0434801	-0.03138	
197	-8.12	0.207406	-0.00942512	0.0525232	-0.03138	
198	-7.72	0.212635	-0.00942512	0.0331546	-0.03138	
199	-7.22	0.227203	-0.00942512	0.0322996	-0.03138	
200	-6.62	0.224999	-0.00942512	0.0257228	-0.03138	
201	-6.32	0.215627	-0.00942512	0.0293072	-0.03138	
202	-5.92	0.225295	-0.00942512	0.0185212	-0.03138	
203	-5.72	0.222204	-0.00942512	0.0172059	-0.03138	
204	-5.42	0.223191	-0.00942512	0.0122733	-0.03138	
205	-5.02	0.21543	-0.00942512	0.0101359	-0.03138	
206	-4.62	0.211287	-0.00942512	0.00227661	-0.03138	
207	-4.22	0.218817	-0.00942512	0.00661728	-0.03138	
208	-3.72	0.220034	-0.00942512	0.0020793	-0.03138	
209	-3.32	0.240422	-0.00942512	-0.00383979	-0.03138	
210	-3.02	0.219212	-0.00942512	-0.00594436	-0.03138	
211	-2.62	0.22638	-0.00942512	-0.0108441	-0.03138	
212	-2.22	0.234404	-0.00942512	-0.0151847	-0.03138	
213	-1.82	0.231346	-0.00942512	-0.010022	-0.03138	
214	-1.42	0.221875	-0.00942512	-0.00919987	-0.03138	
215	-1.12	0.227663	-0.00942512	-0.00949582	-0.03138	
216	-0.52	0.223322	-0.00942512	-0.0146257	-0.03138	
217	-0.22	0.2274	-0.00942512	-0.00998908	-0.03138	
218	0.18	0.227696	-0.00942512	-0.0122581	-0.03138	
219	0.58	0.215792	-0.00942512	-0.014264	-0.03138	
220	0.88	0.216778	-0.00942512	-0.0121923	-0.03138	
221	1.38	0.217304	-0.00942512	-0.0189993	-0.03138	
222	1.88	0.224046	-0.00942512	-0.014823	-0.03138	
223	2.28	0.216976	-0.00942512	-0.0189006	-0.03138	
224	2.78	0.211911	-0.00942512	-0.0181772	-0.03138	
225	3.18	0.223585	-0.00942512	-0.0160726	-0.03138	
226	3.58	0.223289	-0.00942512	-0.0216629	-0.03138	
227	3.98	0.222533	-0.00942512	-0.022189	-0.03138	
228	4.48	0.214148	-0.00942512	-0.0236359	-0.03138	
229	4.78	0.217633	-0.00942512	-0.0221561	-0.03138	
230	5.28	0.210169	-0.00942512	-0.0268914	-0.03138	
231	5.68	0.213325	-0.00942512	-0.0305415	-0.03138	
232	6.18	0.217173	-0.00942512	-0.0220246	-0.03138	
233	6.58	0.203263	-0.00942512	-0.0253458	-0.03138	
234	6.88	0.20471	-0.00942512	-0.0261351	-0.03138	
235	7.28	0.221514	-0.00942512	-0.0212682	-0.03138	
236	7.68	0.227729	-0.00942512	-0.025872	-0.03138	
237	8.18	0.210793	-0.00942512	-0.0213011	-0.03138	
238	8.68	0.210892	-0.00942512	-0.0300482	-0.03138	
239	9.08	0.210497	-0.00942512	-0.0262008	-0.03138	
240	9.48	0.2274	-0.00942512	-0.0226165	-0.03138	
241	9.88	0.206486	-0.00942512	-0.0246882	-0.03138	
242	10.28	0.220659	-0.00942512	-0.0235372	-0.03138	
243	10.68	0.21497	-0.00942512	-0.0230769	-0.03138	
244	11.28	0.213523	-0.00942512	-0.0303442	-0.03138	
245	11.68	0.207801	-0.00942512	-0.0311005	-0.03138	
246	12.08	0.205795	-0.00942512	-0.0287329	-0.03138	
247	12.38	0.216811	-0.00942512	-0.0252472	-0.03138	
248	12.68	0.215364	-0.00942512	-0.0216629	-0.03138	
249	13.08	0.214345	-0.00942512	-0.0312321	-0.03138	
250	13.48	0.216022	-0.00942512	-0.0234715	-0.03138	
251	13.88	0.227696	-0.00942512	-0.0259049	-0.03138	
252	14.38	0.232004	-0.00942512	-0.026431	-0.03138	
253	14.68	0.214608	-0.00942512	-0.0273518	-0.03138	
254	15.08	0.225723	-0.00942512	-0.027845	-0.03138	
255	15.28	0.222303	-0.00942512	-0.0282067	-0.03138	
256	15.58	0.216449	-0.00942512	-0.0307388	-0.03138	
257	15.98	0.209445	-0.00942512	-0.0295221	-0.03138	
258	16.38	0.222369	-0.00942512	-0.0288644	-0.03138	
259	16.78	0.229636	-0.00942512	-0.0325474	-0.03138	
260	17.18	0.226972	-0.00942512	-0.0244909	-0.03138	
261	17.58	0.217765	-0.00942512	-0.0252801	-0.03138	
262	17.88	0.199251	-0.00942512	-0.0265297	-0.03138	
263	18.28	0.20859	-0.00942512	-0.0276148	-0.03138	
264	18.58	0.228649	-0.00942512	-0.0287987	-0.03138	
265	18.88	0.211944	-0.00942512	-0.0301469	-0.03138	
266	19.18	0.231083	-0.00942512	-0.0259378	-0.03138	
267	19.48	0.215233	-0.00942512	-0.0273189	-0.03138	
268	19.88	0.197081	-0.00942512	-0.0221232	-0.03138	
269	20.28	0.206255	-0.00942512	-0.027286	-0.03138	
270	20.68	0.206091	-0.00942512	-0.026727	-0.03138	
271	21.08	0.214444	-0.00942512	-0.0248197	-0.03138	
272	21.38	0.19399	-0.00942512	-0.0262008	-0.03138	
273	21.78	0.217831	-0.00942512	-0.0271545	-0.03138	
274	22.08	0.212931	-0.00942512	-0.0295879	-0.03138	
275	22.48	0.210432	-0.00942512	-0.03041	-0.03138	
276	22.88	0.218488	-0.00942512	-0.0285356	-0.03138	
277	23.28	0.208886	-0.00942512	-0.0230769	-0.03138	
278	23.88	0.216548	-0.00942512	-0.0305744	-0.03138	
279	24.18	0.23618	-0.00942512	-0.0296536	-0.03138	
280	24.58	0.225295	-0.00942512	-0.0298181	-0.03138	
281	24.98	0.205861	-0.00942512	-0.0283383	-0.03138	
282	25.38	0.219277	-0.00942512	-0.0232084	-0.03138	
283	25.78	0.212799	-0.00942512	-0.0283054	-0.03138	
284	26.28	0.213983	-0.00942512	-0.0298181	-0.03138	
285	26.78	0.196127	-0.00942512	-0.0296208	-0.03138	
286	27.28	0.21224	-0.00942512	-0.0296536	-0.03138	
287	27.58	0.215594	-0.00942512	-0.0260035	-0.03138	
288	27.98	0.196456	-0.00942512	-0.0303113	-0.03138	
289	28.38	0.206486	-0.00942512	-0.0283383	-0.03138	
290	28.68	0.210004	-0.00942512	-0.0324817	-0.03138	
291	29.28	0.202408	-0.00942512	-0.0314951	-0.03138	
292	29.78	0.226676	-0.00942512	-0.0300811	-0.03138	
293	30.18	0.203691	-0.00942512	-0.0280752	-0.03138	
294	30.48	0.229833	-0.00942512	-0.0283383	-0.03138	
295	30.78	0.226578	-0.00942512	-0.0280423	-0.03138	
296	31.18	0.210596	-0.00942512	-0.0342903	-0.03138	
297	31.58	0.21224	-0.00942512	-0.0276148	-0.03138	
298	31.98	0.211122	-0.00942512	-0.0268585	-0.03138	
299	32.38	0.205039	-0.00942512	-0.03041	-0.03138	
300	32.88	0.217535	-0.00942512	-0.0307388	-0.03138	
301	33.28	0.215068	-0.00942512	-0.0279437	-0.03138	
302	33.48	0.208163	-0.00942512	-0.0249512	-0.03138	
303	33.88	0.213325	-0.00942512	-0.0292919	-0.03138	
304	34.08	0.225262	-0.00942512	-0.0300482	-0.03138	
305	34.48	0.226545	-0.00942512	-0.0257076	-0.03138	
306	34.78	0.207735	-0.00942512	-0.029555	-0.03138	
307	35.38	0.210629	-0.00942512	-0.0274504	-0.03138	
308	35.78	0.214279	-0.00942512	-0.0260364	-0.03138	
309	36.18	0.179685	-0.00942512	-0.0307388	-0.03138	
310	36.48	0.214082	-0.00942512	-0.0303442	-0.03138	
311	36.78	0.211418	-0.00942512	-0.030114	-0.03138	
312	37.08	0.209774	-0.00942512	-0.0302784	-0.03138	
313	37.38	0.206124	-0.00942512	-0.030969	-0.03138	
314	37.68	0.212273	-0.00942512	-0.0275491	-0.03138	
315	38.08	0.216515	-0.00942512	-0.0305086	-0.03138	
316	38.58	0.203986	-0.00942512	-0.0271873	-0.03138	
317	38.88	0.21372	-0.00942512	-0.0308703	-0.03138	
318	39.28	0.216614	-0.00942512	-0.0267927	-0.03138	
319	39.58	0.221908	-0.00942512	-0.0247868	-0.03138	
320	39.98	0.216384	-0.00942512	-0.0286342	-0.03138	
321	40.28	0.22592	-0.00942512	-0.0282396	-0.03138	
322	40.78	0.221579	-0.00942512	-0.0288973	-0.03138	
323	41.08	0.217403	-0.00942512	-0.0281739	-0.03138	
324	41.58	0.227038	-0.00942512	-0.0268585	-0.03138	
325	41.98	0.210629	-0.00942512	-0.0307717	-0.03138	
326	42.28	0.217173	-0.00942512	-0.0287329	-0.03138	
327	42.68	0.20813	-0.00942512	-0.027845	-0.03138	
328	43.08	0.227334	-0.00942512	-0.0255432	-0.03138	
329	43.38	0.205137	-0.00942512	-0.0268256	-0.03138	
330	43.78	0.219343	-0.00942512	-0.0276477	-0.03138	
331	44.08	0.211254	-0.00942512	-0.0377102	-0.03138	
332	44.58	0.220593	-0.00942512	-0.0275491	-0.03138	
333	45.08	0.207012	-0.00942512	-0.0244251	-0.03138	
334	45.48	0.215068	-0.00942512	-0.0268256	-0.03138	
335	45.78	0.210399	-0.00942512	-0.0302784	-0.03138	
336	46.18	0.202901	-0.00942512	-0.0232084	-0.03138	
337	46.48	0.201158	-0.00942512	-0.0205119	-0.03138	
338	46.78	0.194088	-0.00942512	-0.0234386	-0.03138	
339	47.18	0.205927	-0.00942512	-0.0251485	-0.03138	
340	47.58	0.194319	-0.00942512	-0.0302784	-0.03138	
341	48.18	0.195765	-0.00942512	-0.0284041	-0.03138	
342	48.48	0.209774	-0.00942512	-0.0284041	-0.03138	
343	48.88	0.216285	-0.00942512	-0.0239976	-0.03138	
344	49.28	0.215726	-0.00942512	-0.0291604	-0.03138	
345	49.58	0.207472	-0.00942512	-0.0296865	-0.03138	
346	49.98	0.192773	-0.00942512	-0.0317911	-0.03138	
347	50.38	0.197179	-0.00942512	-0.0256089	-0.03138	
348	50.78	0.198561	-0.00942512	-0.0294235	-0.03138	
349	51.28	0.199613	-0.00942512	-0.0235701	-0.03138	
350	51.68	0.192411	-0.00942512	-0.0276148	-0.03138	
351	51.98	0.187446	-0.00942512	-0.0379733	-0.03138	
352	52.28	0.191129	-0.00942512	-0.0305086	-0.03138	
353	52.58	0.207176	-0.00942512	-0.0325803	-0.03138	
354	52.88	0.197311	-0.00942512	-0.0280094	-0.03138	
355	53.18	0.188893	-0.00942512	-0.0198871	-0.03138	
356	53.58	0.203954	-0.00942512	-0.023307	-0.03138	
357	54.08	0.205696	-0.00942512	-0.0285685	-0.03138	
358	54.38	0.214345	-0.00942512	-0.0286014	-0.03138	
359	54.78	0.197344	-0.00942512	-0.0298838	-0.03138	
360	55.08	0.203164	-0.00942512	-0.0305415	-0.03138	
361	55.28	0.208327	-0.00942512	-0.0299496	-0.03138	
362	55.68	0.206025	-0.00942512	-0.0316596	-0.03138	
363	55.98	0.197377	-0.00942512	-0.0250828	-0.03138	
364	56.38	0.204184	-0.00942512	-0.0212025	-0.03138	
365	56.68	0.198791	-0.00942512	-0.0301469	-0.03138	
366	57.18	0.193266	-0.00942512	-0.0336655	-0.03138	
367	57.48	0.210596	-0.00942512	-0.0235701	-0.03138	
368	57.78	0.206091	-0.00942512	-0.0241949	-0.03138	
369	58.18	0.218291	-0.00942512	-0.0268914	-0.03138	
370	58.48	0.20517	-0.00942512	-0.0242607	-0.03138	
371	58.88	0.19616	-0.00942512	-0.0274175	-0.03138	
372	59.18	0.212536	-0.00942512	-0.0239318	-0.03138	
373	59.58	0.208985	-0.00942512	-0.0268914	-0.03138	
374	60.08	0.196818	-0.00942512	-0.0231426	-0.03138	
375	60.48	0.211911	-0.00942512	-0.0270229	-0.03138	
376	60.98	0.207176	-0.00942512	-0.029259	-0.03138	
377	61.28	0.201685	-0.00942512	-0.0296536	-0.03138	
378	61.58	0.209281	-0.00942512	-0.0268914	-0.03138	
379	61.98	0.192148	-0.00942512	-0.0285685	-0.03138	
380	62.28	0.193266	-0.00942512	-0.0310019	-0.03138	
381	62.68	0.213424	-0.00942512	-0.0288973	-0.03138	
382	63.18	0.198133	-0.00942512	-0.030114	-0.03138	
383	63.58	0.192609	-0.00942512	-0.0316924	-0.03138	
