# 2016-09-23-Friday
# DL3 limit scan.
# B2 = T2 + 2.050 us
# HP 214B FIP at 5.5 on 100V setting ; Applied to Top ; Mesh & Vin of MCP @ +25V ; Vout of MCP @ +2025 V
# Oven @ 32 A
# MW On ; f = 15932.0 MHz; Attn = MAX
# Gate = 200 ns ; Amp = 25x ; Sensitivity = 5 mV
# +/- 30 mV IR/Oven offset.
# Top: 0 V ; Bot: -0.454 V ; IR: +0.070 V ; Oven: -0.070 V ; Vis: -0.005 V ; MW: +0.005 V
# i, IR frequency, norm, norm bkgnd, signal, signal bkgnd
0	62.48	0.198791	-0.00626991	-0.0228138	-0.028945	
1	62.28	0.206124	-0.00626991	-0.0171249	-0.028945	
2	62.08	0.218192	-0.00626991	-0.0209723	-0.028945	
3	61.88	0.219475	-0.00626991	-0.0187362	-0.028945	
4	61.78	0.217962	-0.00626991	-0.0249841	-0.028945	
5	61.68	0.212175	-0.00626991	-0.0202488	-0.028945	
6	61.58	0.215134	-0.00626991	-0.0223863	-0.028945	
7	61.48	0.210497	-0.00626991	-0.0190979	-0.028945	
8	61.28	0.217272	-0.00626991	-0.0209394	-0.028945	
9	61.08	0.215594	-0.00626991	-0.0271216	-0.028945	
10	60.98	0.215956	-0.00626991	-0.0203804	-0.028945	
11	60.78	0.205039	-0.00626991	-0.0251157	-0.028945	
12	60.78	0.214279	-0.00626991	-0.0135405	-0.028945	
13	60.58	0.198824	-0.00626991	-0.0206435	-0.028945	
14	60.28	0.221316	-0.00626991	-0.0241291	-0.028945	
15	60.08	0.216252	-0.00626991	-0.0222876	-0.028945	
16	59.88	0.214838	-0.00626991	-0.0210381	-0.028945	
17	59.88	0.218291	-0.00626991	-0.0257733	-0.028945	
18	59.58	0.198857	-0.00626991	-0.0201502	-0.028945	
19	59.28	0.201948	-0.00626991	-0.0248197	-0.028945	
20	59.08	0.206091	-0.00626991	-0.0260693	-0.028945	
21	58.88	0.194943	-0.00626991	-0.0236688	-0.028945	
22	58.68	0.204151	-0.00626991	-0.0258391	-0.028945	
23	58.48	0.206913	-0.00626991	-0.0273518	-0.028945	
24	58.38	0.214049	-0.00626991	-0.0208079	-0.028945	
25	58.18	0.199448	-0.00626991	-0.0225836	-0.028945	
26	57.98	0.205433	-0.00626991	-0.0217615	-0.028945	
27	57.68	0.216088	-0.00626991	-0.0228467	-0.028945	
28	57.38	0.211385	-0.00626991	-0.0199858	-0.028945	
29	57.08	0.214378	-0.00626991	-0.0284369	-0.028945	
30	56.78	0.223585	-0.00626991	-0.0251814	-0.028945	
31	56.58	0.216976	-0.00626991	-0.0213669	-0.028945	
32	56.28	0.216285	-0.00626991	-0.0257076	-0.028945	
33	56.08	0.20711	-0.00626991	-0.0224521	-0.028945	
34	55.78	0.210892	-0.00626991	-0.0247211	-0.028945	
35	55.48	0.210629	-0.00626991	-0.0228467	-0.028945	
36	55.18	0.205302	-0.00626991	-0.0214656	-0.028945	
37	54.88	0.208393	-0.00626991	-0.0274504	-0.028945	
38	54.58	0.20882	-0.00626991	-0.0227809	-0.028945	
39	54.28	0.204776	-0.00626991	-0.0222219	-0.028945	
40	53.88	0.22079	-0.00626991	-0.0247211	-0.028945	
41	53.68	0.209675	-0.00626991	-0.0170591	-0.028945	
42	53.38	0.220461	-0.00626991	-0.0211367	-0.028945	
43	52.98	0.210596	-0.00626991	-0.0219588	-0.028945	
44	52.78	0.217535	-0.00626991	-0.0240305	-0.028945	
45	52.48	0.232431	-0.00626991	-0.0260693	-0.028945	
46	52.18	0.20494	-0.00626991	-0.0229124	-0.028945	
47	51.78	0.208524	-0.00626991	-0.0259049	-0.028945	
48	51.48	0.212438	-0.00626991	-0.0274504	-0.028945	
49	51.08	0.204841	-0.00626991	-0.01992	-0.028945	
50	50.68	0.217337	-0.00626991	-0.0189006	-0.028945	
51	50.28	0.205302	-0.00626991	-0.0265954	-0.028945	
52	49.98	0.223191	-0.00626991	-0.0219259	-0.028945	
53	49.58	0.217337	-0.00626991	-0.0253787	-0.028945	
54	49.38	0.216384	-0.00626991	-0.0281081	-0.028945	
55	49.08	0.235983	-0.00626991	-0.0251485	-0.028945	
56	48.78	0.223026	-0.00626991	-0.0219588	-0.028945	
57	48.48	0.200994	-0.00626991	-0.0210381	-0.028945	
58	48.18	0.21372	-0.00626991	-0.0266941	-0.028945	
59	47.68	0.201816	-0.00626991	-0.0296208	-0.028945	
60	47.28	0.201816	-0.00626991	-0.0260693	-0.028945	
61	46.98	0.213852	-0.00626991	-0.0305744	-0.028945	
62	46.58	0.219541	-0.00626991	-0.0233399	-0.028945	
63	46.28	0.201093	-0.00626991	-0.0231426	-0.028945	
64	45.98	0.196456	-0.00626991	-0.0262008	-0.028945	
65	45.68	0.199843	-0.00626991	-0.0246882	-0.028945	
66	45.38	0.214082	-0.00626991	-0.025313	-0.028945	
67	44.98	0.21224	-0.00626991	-0.0274175	-0.028945	
68	44.68	0.230622	-0.00626991	-0.024458	-0.028945	
69	44.38	0.233155	-0.00626991	-0.0177168	-0.028945	
70	44.08	0.240816	-0.00626991	-0.0279437	-0.028945	
71	43.68	0.227794	-0.00626991	-0.0266283	-0.028945	
72	43.48	0.231872	-0.00626991	-0.0186047	-0.028945	
73	43.18	0.219672	-0.00626991	-0.024458	-0.028945	
74	42.98	0.213194	-0.00626991	-0.0236359	-0.028945	
75	42.58	0.20425	-0.00626991	-0.0203804	-0.028945	
76	42.28	0.218225	-0.00626991	-0.0271873	-0.028945	
77	41.98	0.2103	-0.00626991	-0.0216629	-0.028945	
78	41.48	0.222138	-0.00626991	-0.0182758	-0.028945	
79	41.18	0.215923	-0.00626991	-0.0219917	-0.028945	
80	40.78	0.244105	-0.00626991	-0.0181443	-0.028945	
81	40.48	0.228156	-0.00626991	-0.0207092	-0.028945	
82	40.18	0.232168	-0.00626991	-0.0267599	-0.028945	
83	39.88	0.228321	-0.00626991	-0.0229124	-0.028945	
84	39.48	0.239896	-0.00626991	-0.0245238	-0.028945	
85	39.18	0.225558	-0.00626991	-0.0244909	-0.028945	
86	38.78	0.237429	-0.00626991	-0.0238332	-0.028945	
87	38.38	0.215759	-0.00626991	-0.0284369	-0.028945	
88	37.98	0.235456	-0.00626991	-0.0217286	-0.028945	
89	37.68	0.227203	-0.00626991	-0.0213011	-0.028945	
90	37.38	0.21418	-0.00626991	-0.0198542	-0.028945	
91	36.98	0.218554	-0.00626991	-0.0181772	-0.028945	
92	36.58	0.232267	-0.00626991	-0.0220246	-0.028945	
93	36.28	0.226874	-0.00626991	-0.0228138	-0.028945	
94	35.78	0.239107	-0.00626991	-0.0260364	-0.028945	
95	35.38	0.2201	-0.00626991	-0.0265626	-0.028945	
96	34.98	0.231971	-0.00626991	-0.0245566	-0.028945	
97	34.68	0.228584	-0.00626991	-0.0276148	-0.028945	
98	34.28	0.240389	-0.00626991	-0.0234715	-0.028945	
99	33.98	0.23276	-0.00626991	-0.0225836	-0.028945	
100	33.58	0.221908	-0.00626991	-0.0284041	-0.028945	
101	33.28	0.235259	-0.00626991	-0.0280094	-0.028945	
102	32.78	0.225229	-0.00626991	-0.0269243	-0.028945	
103	32.38	0.220922	-0.00626991	-0.0236359	-0.028945	
104	31.98	0.210629	-0.00626991	-0.0246553	-0.028945	
105	31.58	0.233746	-0.00626991	-0.0212682	-0.028945	
106	31.18	0.216811	-0.00626991	-0.0273189	-0.028945	
107	30.88	0.223881	-0.00626991	-0.0289631	-0.028945	
108	30.48	0.233418	-0.00626991	-0.0232084	-0.028945	
109	30.08	0.225032	-0.00626991	-0.0246553	-0.028945	
110	29.68	0.237988	-0.00626991	-0.022485	-0.028945	
111	29.18	0.239468	-0.00626991	-0.0252472	-0.028945	
112	28.78	0.2274	-0.00626991	-0.0221561	-0.028945	
113	28.28	0.205729	-0.00626991	-0.0219588	-0.028945	
114	27.98	0.240521	-0.00626991	-0.0209394	-0.028945	
115	27.58	0.234601	-0.00626991	-0.0248526	-0.028945	
116	27.28	0.229439	-0.00626991	-0.0222548	-0.028945	
117	24.58	0.234569	-0.00626991	-0.021334	-0.028945	
118	24.58	0.235917	-0.00626991	-0.0225836	-0.028945	
119	24.48	0.22934	-0.00626991	-0.0239318	-0.028945	
120	24.28	0.243184	-0.00626991	-0.0187033	-0.028945	
121	24.08	0.244664	-0.00626991	-0.0232084	-0.028945	
122	23.78	0.229307	-0.00626991	-0.0223863	-0.028945	
123	23.48	0.233845	-0.00626991	-0.0183416	-0.028945	
124	23.18	0.236739	-0.00626991	-0.019361	-0.028945	
125	22.88	0.246012	-0.00626991	-0.0262995	-0.028945	
126	22.68	0.221349	-0.00626991	-0.0234386	-0.028945	
127	22.38	0.225032	-0.00626991	-0.0204462	-0.028945	
128	22.08	0.231576	-0.00626991	-0.0204133	-0.028945	
129	21.88	0.230195	-0.00626991	-0.016796	-0.028945	
130	21.58	0.236147	-0.00626991	-0.0247539	-0.028945	
131	21.28	0.24884	-0.00626991	-0.0257405	-0.028945	
132	20.98	0.221744	-0.00626991	-0.026431	-0.028945	
133	20.68	0.250879	-0.00626991	-0.0174537	-0.028945	
134	20.28	0.258672	-0.00626991	-0.0228138	-0.028945	
135	19.98	0.2396	-0.00626991	-0.0273846	-0.028945	
136	19.58	0.241376	-0.00626991	-0.0247539	-0.028945	
137	19.38	0.248248	-0.00626991	-0.0206763	-0.028945	
138	19.08	0.234667	-0.00626991	-0.0206435	-0.028945	
139	18.68	0.225394	-0.00626991	-0.0202488	-0.028945	
140	18.48	0.251076	-0.00626991	-0.0239647	-0.028945	
141	18.18	0.240422	-0.00626991	-0.0230769	-0.028945	
142	17.78	0.247656	-0.00626991	-0.0275162	-0.028945	
143	17.38	0.236114	-0.00626991	-0.0255103	-0.028945	
144	16.98	0.251471	-0.00626991	-0.0236359	-0.028945	
145	16.48	0.239929	-0.00626991	-0.0244909	-0.028945	
146	16.18	0.244401	-0.00626991	-0.0254774	-0.028945	
147	15.88	0.241737	-0.00626991	-0.0282396	-0.028945	
148	15.58	0.238317	-0.00626991	-0.0260693	-0.028945	
149	15.28	0.241343	-0.00626991	-0.0232413	-0.028945	
150	14.88	0.247887	-0.00626991	-0.0237345	-0.028945	
151	14.38	0.238021	-0.00626991	-0.0210709	-0.028945	
152	13.88	0.243579	-0.00626991	-0.0138036	-0.028945	
153	13.58	0.215792	-0.00626991	-0.0205777	-0.028945	
154	13.18	0.251438	-0.00626991	-0.0235044	-0.028945	
155	12.88	0.23401	-0.00626991	-0.0217286	-0.028945	
156	12.58	0.236443	-0.00626991	-0.0254116	-0.028945	
157	12.18	0.240553	-0.00626991	-0.0197885	-0.028945	
158	11.88	0.232398	-0.00626991	-0.0214327	-0.028945	
159	11.48	0.236936	-0.00626991	-0.0201173	-0.028945	
160	10.98	0.242987	-0.00626991	-0.0239647	-0.028945	
161	10.48	0.238449	-0.00626991	-0.0203804	-0.028945	
162	10.08	0.246834	-0.00626991	-0.0228796	-0.028945	
163	9.78	0.242198	-0.00626991	-0.0209723	-0.028945	
164	9.38	0.236015	-0.00626991	-0.0229782	-0.028945	
165	9.08	0.248084	-0.00626991	-0.0202488	-0.028945	
166	8.78	0.243677	-0.00626991	-0.0227151	-0.028945	
167	8.38	0.232398	-0.00626991	-0.0250499	-0.028945	
168	7.98	0.218686	-0.00626991	-0.0205448	-0.028945	
169	7.58	0.225065	-0.00626991	-0.0196569	-0.028945	
170	7.18	0.233418	-0.00626991	-0.020216	-0.028945	
171	6.98	0.255812	-0.00626991	-0.0189335	-0.028945	
172	6.68	0.24177	-0.00626991	-0.0202488	-0.028945	
173	6.38	0.248413	-0.00626991	-0.0146915	-0.028945	
174	6.08	0.252984	-0.00626991	-0.0189006	-0.028945	
175	5.78	0.242757	-0.00626991	-0.0165001	-0.028945	
176	5.38	0.255088	-0.00626991	-0.0190979	-0.028945	
177	4.98	0.245157	-0.00626991	-0.019065	-0.028945	
178	4.48	0.218916	-0.00626991	-0.0208736	-0.028945	
179	4.18	0.250747	-0.00626991	-0.022189	-0.028945	
180	3.88	0.247591	-0.00626991	-0.0180127	-0.028945	
181	3.48	0.219047	-0.00626991	-0.0255432	-0.028945	
182	3.18	0.240849	-0.00626991	-0.0221232	-0.028945	
183	2.88	0.223224	-0.00626991	-0.00969312	-0.028945	
184	2.58	0.246538	-0.00626991	-0.016796	-0.028945	
185	2.18	0.239435	-0.00626991	-0.0178812	-0.028945	
186	1.78	0.242855	-0.00626991	-0.0140996	-0.028945	
187	1.28	0.246374	-0.00626991	-0.011995	-0.028945	
188	0.98	0.246637	-0.00626991	-0.0156122	-0.028945	
189	0.68	0.252227	-0.00626991	-0.0166974	-0.028945	
190	0.28	0.224736	-0.00626991	-0.0141653	-0.028945	
191	-0.12	0.230984	-0.00626991	-0.00962736	-0.028945	
192	-0.42	0.243381	-0.00626991	-0.0140667	-0.028945	
193	-1.02	0.218061	-0.00626991	-0.0168947	-0.028945	
194	-1.42	0.220757	-0.00626991	-0.0108112	-0.028945	
195	-1.82	0.219606	-0.00626991	-0.0146586	-0.028945	
196	-2.22	0.242592	-0.00626991	-0.0130473	-0.028945	
197	-2.52	0.226709	-0.00626991	-0.00893679	-0.028945	
198	-2.82	0.229406	-0.00626991	-0.00670069	-0.028945	
199	-3.32	0.240553	-0.00626991	-0.00255732	-0.028945	
200	-3.52	0.239041	-0.00626991	-0.00114332	-0.028945	
201	-4.02	0.243447	-0.00626991	0.00286852	-0.028945	
202	-4.62	0.255055	-0.00626991	0.00135586	-0.028945	
203	-4.92	0.235325	-0.00626991	0.0098399	-0.028945	
204	-5.32	0.235128	-0.00626991	0.00375638	-0.028945	
205	-5.62	0.239304	-0.00626991	0.00461136	-0.028945	
206	-5.82	0.243349	-0.00626991	0.0219083	-0.028945	
207	-6.32	0.239205	-0.00626991	0.0207245	-0.028945	
208	-6.52	0.229208	-0.00626991	0.0229606	-0.028945	
209	-7.12	0.240849	-0.00626991	0.0410467	-0.028945	
210	-7.52	0.24131	-0.00626991	0.0484127	-0.028945	
211	-7.92	0.22444	-0.00626991	0.0469329	-0.028945	
212	-8.42	0.241869	-0.00626991	0.061073	-0.028945	
213	-8.82	0.227531	-0.00626991	0.063046	-0.028945	
214	-9.12	0.230162	-0.00626991	0.0701161	-0.028945	
215	-9.42	0.229998	-0.00626991	0.0766928	-0.028945	
216	-9.92	0.252161	-0.00626991	0.0826119	-0.028945	
217	-10.32	0.239896	-0.00626991	0.0819214	-0.028945	
218	-10.72	0.2347	-0.00626991	0.0926086	-0.028945	
219	-11.02	0.23493	-0.00626991	0.0862292	-0.028945	
220	-11.42	0.232234	-0.00626991	0.0895176	-0.028945	
221	-11.62	0.238745	-0.00626991	0.0951407	-0.028945	
222	-11.92	0.245091	-0.00626991	0.109642	-0.028945	
223	-12.22	0.241803	-0.00626991	0.0945488	-0.028945	
224	-12.52	0.251833	-0.00626991	0.109149	-0.028945	
225	-12.92	0.232826	-0.00626991	0.116581	-0.028945	
226	-13.32	0.257127	-0.00626991	0.121744	-0.028945	
227	-13.82	0.231741	-0.00626991	0.119277	-0.028945	
228	-14.12	0.266598	-0.00626991	0.105335	-0.028945	
229	-14.42	0.255844	-0.00626991	0.130359	-0.028945	
230	-14.72	0.265282	-0.00626991	0.12204	-0.028945	
231	-15.02	0.251372	-0.00626991	0.125131	-0.028945	
232	-15.32	0.257357	-0.00626991	0.114476	-0.028945	
233	-15.72	0.244828	-0.00626991	0.126413	-0.028945	
234	-16.02	0.235884	-0.00626991	0.116614	-0.028945	
235	-16.52	0.234174	-0.00626991	0.125953	-0.028945	
236	-17.02	0.25249	-0.00626991	0.1274	-0.028945	
237	-17.32	0.259988	-0.00626991	0.123355	-0.028945	
238	-17.62	0.238679	-0.00626991	0.130951	-0.028945	
239	-17.92	0.241803	-0.00626991	0.132891	-0.028945	
240	-18.22	0.245289	-0.00626991	0.1323	-0.028945	
241	-18.62	0.252096	-0.00626991	0.130557	-0.028945	
242	-20.82	0.220626	-0.00626991	0.122829	-0.028945	
243	-20.82	0.231609	-0.00626991	0.12352	-0.028945	
244	-21.22	0.243875	-0.00626991	0.120461	-0.028945	
245	-21.52	0.237594	-0.00626991	0.129241	-0.028945	
246	-21.72	0.244335	-0.00626991	0.114575	-0.028945	
247	-22.02	0.225887	-0.00626991	0.118653	-0.028945	
248	-22.32	0.235489	-0.00626991	0.118817	-0.028945	
249	-22.72	0.232135	-0.00626991	0.127038	-0.028945	
250	-23.02	0.239962	-0.00626991	0.120527	-0.028945	
251	-23.22	0.235654	-0.00626991	0.136772	-0.028945	
252	-23.52	0.241343	-0.00626991	0.128715	-0.028945	
253	-23.82	0.234733	-0.00626991	0.131806	-0.028945	
254	-24.02	0.244763	-0.00626991	0.121382	-0.028945	
255	-24.32	0.227005	-0.00626991	0.119771	-0.028945	
256	-24.62	0.221514	-0.00626991	0.122665	-0.028945	
257	-25.02	0.234338	-0.00626991	0.123618	-0.028945	
258	-25.32	0.234864	-0.00626991	0.120593	-0.028945	
259	-25.62	0.233878	-0.00626991	0.142362	-0.028945	
260	-26.02	0.248478	-0.00626991	0.121974	-0.028945	
261	-26.42	0.24371	-0.00626991	0.133056	-0.028945	
262	-26.72	0.24861	-0.00626991	0.136147	-0.028945	
263	-26.92	0.242658	-0.00626991	0.125427	-0.028945	
264	-27.32	0.241606	-0.00626991	0.139633	-0.028945	
265	-27.52	0.230491	-0.00626991	0.13082	-0.028945	
266	-27.82	0.222763	-0.00626991	0.138054	-0.028945	
267	-28.12	0.239435	-0.00626991	0.127433	-0.028945	
268	-28.42	0.233516	-0.00626991	0.116647	-0.028945	
269	-28.82	0.23447	-0.00626991	0.140751	-0.028945	
270	-29.12	0.239534	-0.00626991	0.133023	-0.028945	
271	-29.42	0.239994	-0.00626991	0.139665	-0.028945	
272	-29.62	0.23687	-0.00626991	0.146933	-0.028945	
273	-30.02	0.243447	-0.00626991	0.13858	-0.028945	
274	-30.22	0.246966	-0.00626991	0.126183	-0.028945	
275	-30.52	0.230359	-0.00626991	0.142757	-0.028945	
276	-30.72	0.232464	-0.00626991	0.136246	-0.028945	
277	-31.12	0.233549	-0.00626991	0.143513	-0.028945	
278	-31.42	0.246012	-0.00626991	0.145519	-0.028945	
279	-31.82	0.254825	-0.00626991	0.142822	-0.028945	
280	-32.22	0.247985	-0.00626991	0.133549	-0.028945	
281	-32.52	0.24542	-0.00626991	0.129439	-0.028945	
282	-32.82	0.248182	-0.00626991	0.135489	-0.028945	
283	-33.12	0.245946	-0.00626991	0.129439	-0.028945	
284	-33.42	0.254529	-0.00626991	0.136377	-0.028945	
285	-33.72	0.251175	-0.00626991	0.136509	-0.028945	
286	-34.02	0.240915	-0.00626991	0.136805	-0.028945	
287	-34.42	0.237857	-0.00626991	0.146209	-0.028945	
288	-34.82	0.261862	-0.00626991	0.129932	-0.028945	
289	-35.12	0.232464	-0.00626991	0.132694	-0.028945	
290	-35.62	0.249169	-0.00626991	0.135785	-0.028945	
291	-35.92	0.24496	-0.00626991	0.134832	-0.028945	
292	-36.22	0.244565	-0.00626991	0.127005	-0.028945	
293	-36.52	0.234075	-0.00626991	0.136607	-0.028945	
294	-36.92	0.231116	-0.00626991	0.137101	-0.028945	
295	-37.22	0.243973	-0.00626991	0.121415	-0.028945	
296	-37.72	0.221152	-0.00626991	0.129833	-0.028945	
297	-38.02	0.234503	-0.00626991	0.135851	-0.028945	
298	-38.42	0.24713	-0.00626991	0.133089	-0.028945	
299	-38.72	0.247887	-0.00626991	0.138613	-0.028945	
300	-39.12	0.241014	-0.00626991	0.136476	-0.028945	
301	-39.42	0.246078	-0.00626991	0.122632	-0.028945	
302	-39.82	0.232957	-0.00626991	0.144467	-0.028945	
303	-40.12	0.261829	-0.00626991	0.143283	-0.028945	
304	-40.52	0.235095	-0.00626991	0.137199	-0.028945	
305	-41.02	0.237331	-0.00626991	0.137824	-0.028945	
306	-41.42	0.248182	-0.00626991	0.131609	-0.028945	
307	-41.82	0.235785	-0.00626991	0.132924	-0.028945	
308	-42.12	0.237429	-0.00626991	0.126479	-0.028945	
309	-42.52	0.221119	-0.00626991	0.120922	-0.028945	
310	-42.92	0.242033	-0.00626991	0.118554	-0.028945	
311	-43.32	0.222336	-0.00626991	0.128353	-0.028945	
312	-43.72	0.218718	-0.00626991	0.120922	-0.028945	
313	-44.22	0.235621	-0.00626991	0.127104	-0.028945	
314	-44.62	0.229373	-0.00626991	0.138186	-0.028945	
315	-45.02	0.23447	-0.00626991	0.135489	-0.028945	
316	-45.32	0.244532	-0.00626991	0.130951	-0.028945	
317	-45.62	0.234371	-0.00626991	0.135752	-0.028945	
318	-45.92	0.229373	-0.00626991	0.132201	-0.028945	
319	-46.32	0.224605	-0.00626991	0.134536	-0.028945	
320	-46.72	0.232332	-0.00626991	0.140257	-0.028945	
321	-47.12	0.232628	-0.00626991	0.125657	-0.028945	
322	-47.42	0.234864	-0.00626991	0.127498	-0.028945	
323	-47.72	0.218982	-0.00626991	0.126907	-0.028945	
324	-48.12	0.215825	-0.00626991	0.126282	-0.028945	
325	-48.42	0.219968	-0.00626991	0.123224	-0.028945	
326	-48.72	0.218883	-0.00626991	0.11885	-0.028945	
327	-49.02	0.233089	-0.00626991	0.131116	-0.028945	
328	-49.42	0.227827	-0.00626991	0.122829	-0.028945	
329	-49.92	0.233286	-0.00626991	0.130885	-0.028945	
330	-50.32	0.23812	-0.00626991	0.142263	-0.028945	
331	-50.62	0.223355	-0.00626991	0.132727	-0.028945	
332	-51.02	0.238778	-0.00626991	0.129866	-0.028945	
333	-51.32	0.219475	-0.00626991	0.123651	-0.028945	
334	-51.72	0.242559	-0.00626991	0.125032	-0.028945	
335	-52.02	0.239271	-0.00626991	0.135029	-0.028945	
336	-52.42	0.221382	-0.00626991	0.143677	-0.028945	
337	-52.82	0.233056	-0.00626991	0.14325	-0.028945	
338	-53.22	0.221842	-0.00626991	0.143973	-0.028945	
339	-53.62	0.240488	-0.00626991	0.131346	-0.028945	
340	-53.92	0.250221	-0.00626991	0.13128	-0.028945	
341	-54.32	0.239074	-0.00626991	0.142296	-0.028945	
342	-54.82	0.244368	-0.00626991	0.138876	-0.028945	
343	-55.12	0.241047	-0.00626991	0.139041	-0.028945	
344	-55.52	0.233746	-0.00626991	0.125394	-0.028945	
345	-56.02	0.235719	-0.00626991	0.129143	-0.028945	
346	-56.42	0.234108	-0.00626991	0.126775	-0.028945	
347	-56.82	0.22786	-0.00626991	0.131543	-0.028945	
348	-57.12	0.237594	-0.00626991	0.144927	-0.028945	
349	-57.42	0.230622	-0.00626991	0.127531	-0.028945	
350	-57.72	0.235654	-0.00626991	0.128978	-0.028945	
351	-58.12	0.237956	-0.00626991	0.128353	-0.028945	
352	-58.52	0.225197	-0.00626991	0.125295	-0.028945	
353	-59.02	0.224605	-0.00626991	0.116548	-0.028945	
354	-59.42	0.221218	-0.00626991	0.120955	-0.028945	
355	-59.72	0.224539	-0.00626991	0.125493	-0.028945	
356	-60.12	0.238416	-0.00626991	0.12888	-0.028945	
357	-60.52	0.236015	-0.00626991	0.129241	-0.028945	
358	-60.82	0.227104	-0.00626991	0.137397	-0.028945	
359	-61.02	0.23595	-0.00626991	0.136772	-0.028945	
360	-61.52	0.22717	-0.00626991	0.1176	-0.028945	
361	-62.22	0.245881	-0.00626991	0.138219	-0.028945	
362	-62.52	0.225262	-0.00626991	0.128288	-0.028945	
363	-62.72	0.218817	-0.00626991	0.120823	-0.028945	
364	-64.72	0.241474	-0.00626991	0.13322	-0.028945	
365	-64.92	0.227005	-0.00626991	0.130129	-0.028945	
366	-65.12	0.241836	-0.00626991	0.113753	-0.028945	
367	-65.42	0.222566	-0.00626991	0.128847	-0.028945	
368	-65.62	0.234536	-0.00626991	0.107669	-0.028945	
369	-65.82	0.233779	-0.00626991	0.110497	-0.028945	
370	-66.12	0.233483	-0.00626991	0.12227	-0.028945	
